seq,red_raw,ir_raw,red_fir,ir_fir
22928,-41745,-24944,-18053.102539,-10787.317996
22929,-41720,-24928,-18053.104628,-10787.319333
22930,-41689,-24909,-18053.110919,-0.417275
22931,-41656,-24883,-18053.123874,-10787.331863
22932,-41622,-24860,-18053.146090,-10787.346719
22933,-41595,-24840,-18053.179238,-0.463173
22934,-41571,-24823,-18053.224078,-10787.399866
22935,-41556,-24813,-18053.279387,-10787.437968
22936,-41545,-24803,-18053.342330,-0.575800
22937,-41540,-24798,-18053.408332,-10787.528341
22938,-41541,-24800,-18053.471807,-10787.573528
22939,-41546,-24805,-18053.527379,-0.707439
22940,-41551,-24665,-18053.571506,-10787.657447
22941,-41557,-24713,-18053.603671,-10787.698418
22942,-41565,-24741,-18053.627393,-0.833128
22943,-41573,-24774,-18053.650791,-10787.782677
22944,-41576,-24799,-18053.686406,-10787.833898
22945,-41590,-24810,-18053.748228,-0.993037
22946,-41597,-24831,-18053.851148,-10787.982988
22947,-41604,-24850,-18054.006872,-10788.089972
22948,-41617,-24857,-18054.220719,-1.317239
22949,-41621,-24871,-18054.490655,-10788.382706
22950,-41622,-24884,-18054.805367,-10788.565742
22951,-41626,-24885,-18055.144708,-1.862019
22952,-41627,-24894,-18055.482902,-10788.982196
22953,-41621,-24904,-18055.792952,-10789.199894
22954,-41620,-24896,-18056.050954,-2.508344
22955,-41612,-24899,-18056.242953,-10789.618968
22956,-41610,-24903,-18056.368126,-10789.810203
22957,-41609,-24897,-18056.442138,-3.083092
22958,-41607,-24902,-18056.496821,-10790.159769
22959,-41605,-24905,-18056.576535,-10790.330804
22960,-41613,-24902,-18056.730826,-3.608367
22961,-41614,-24909,-18057.007303,-10790.723388
22962,-41616,-24917,-18057.440993,-10790.970652
22963,-41624,-24917,-18058.045703,-4.361188
22964,-41629,-24924,-18058.809139,-10791.618825
22965,-41638,-24934,-18059.690667,-10792.025257
22966,-41642,-24936,-18060.626062,-5.574092
22967,-41648,-24942,-18061.535675,-10792.969810
22968,-41652,-24953,-18062.338109,-10793.475258
22969,-41659,-24958,-18062.964964,-7.069000
22970,-41663,-24967,-18063.376240,-10794.447386
22971,-41670,-24972,-18063.571068,-10794.874996
22972,-41675,-24976,-18063.593676,-8.341734
22973,-41681,-24981,-18063.530577,-10795.565480
22974,-41687,-24991,-18063.499973,-10795.839019
22975,-41699,-24997,-18063.633061,-9.184502
22976,-41704,-25002,-18064.052163,-10796.350507
22977,-41710,-25007,-18064.845461,-10796.653635
22978,-41711,-25013,-18066.046693,-10.126839
22979,-41715,-25015,-18067.620764,-10797.513459
22980,-41721,-25023,-18069.461402,-10798.106173
22981,-41722,-25027,-18071.401834,-11.897778
22982,-41727,-25029,-18073.236618,-10799.578959
22983,-41731,-25036,-18074.755119,-10800.385387
22984,-41735,-25044,-18075.779441,-14.257801
22985,-41735,-25048,-18076.202179,-10801.851208
22986,-41734,-25052,-18076.015869,-10802.391752
22987,-41717,-25050,-18075.330201,-15.843700
22988,-41700,-25039,-18074.367634,-10802.920424
22989,-41672,-25024,-18073.441356,-10802.936970
22990,-41638,-25006,-18072.911512,-15.965375
22991,-41605,-24984,-18073.126644,-10802.828205
22992,-41575,-24960,-18074.357886,-10802.929395
22993,-41549,-24944,-18076.734980,-16.385122
22994,-41530,-24929,-18080.194327,-10803.996571
22995,-41516,-24916,-18084.449224,-10805.065392
22996,-41510,-24912,-18088.988343,-19.519571
22997,-41509,-24910,-18093.107071,-10807.893781
22998,-41507,-24910,-18095.970102,-10809.166661
22999,-41511,-24917,-18096.698399,-22.921862
23000,-41519,-24924,-18094.472909,-10809.373706
23001,-41520,-24929,-18088.641703,-10807.255311
23002,-41531,-24937,-18078.813725,-16.029083
23003,-41539,-24943,-18064.931647,-10795.953247
23004,-41543,-24949,-18047.308225,-10785.995319
23005,-41555,-24958,-18026.621073,13.952583
23006,-41567,-24972,-18003.867276,-10756.972451
23007,-41569,-24979,-17980.279886,-10738.474718
23008,-41585,-24985,-17957.213320,68.750914
23009,-41592,-24996,-17936.018167,-10696.946471
23010,-41587,-24999,-17917.912735,-10675.957840
23011,-41590,-25007,-17903.868130,130.519946
23012,-41588,-25012,-17894.524067,-10639.414490
23013,-41576,-25010,-17890.139691,-10626.105649
23014,-41581,-25007,-17890.583107,169.605860
23015,-41573,-25011,-17895.366413,-10613.533751
23016,-41561,-25009,-17903.710303,-10614.983793
23017,-41566,-25009,-17914.633714,165.458242
23018,-41562,-25009,-17927.060295,-10632.360418
23019,-41556,-25009,-17939.921270,-10646.845898
23020,-41568,-25011,-17952.247293,123.106067
23021,-41569,-25016,-17963.244538,-10681.993185
23022,-41568,-25017,-17972.340952,-10700.184902
23023,-41581,-25025,-17979.205948,69.673140
23024,-41585,-25033,-17983.747802,-10732.191276
23025,-41586,-25038,-17986.086636,-10744.384204
23026,-41601,-25044,-17986.512613,33.457452
23027,-41606,-25049,-17985.439588,-10759.344307
23028,-41610,-25056,-17983.353183,-10762.331450
23029,-41624,-25066,-17980.762981,23.987070
23030,-41627,-25071,-17978.163778,-10761.792934
23031,-41635,-25078,-17976.001092,-10759.731219
23032,-41644,-25088,-17974.647676,29.390032
23033,-41647,-25091,-17974.387152,-10755.853893
23034,-41653,-25099,-17975.402844,-10755.308845
23035,-41658,-25109,-17977.773810,30.648972
23036,-41660,-25111,-17981.475714,-10758.866028
23037,-41667,-25116,-17986.386673,-10763.096293
23038,-41668,-25120,-17992.301226,18.178940
23039,-41665,-25124,-17998.949589,-10775.399418
23040,-41673,-25126,-18006.023010,-10782.672005
23041,-41671,-25130,-18013.207943,-3.175921
23042,-41669,-25129,-18020.219822,-10797.205104
23043,-41678,-25132,-18026.837069,-10803.706899
23044,-41672,-25141,-18032.932655,-22.474256
23045,-41669,-25134,-18038.490824,-10814.167926
23046,-41669,-25136,-18043.611906,-10818.160462
23047,-41644,-25130,-18048.501267,-34.673560
23048,-41616,-25109,-18053.435479,-10824.741678
23049,-41593,-25094,-18058.715101,-10828.006231
23050,-41552,-25072,-18064.608412,-44.813722
23051,-41521,-25044,-18071.286622,-10836.156548
23052,-41502,-25026,-18078.767953,-10841.465103
23053,-41470,-25007,-18086.877550,-60.723593
23054,-41449,-24991,-18095.225441,-10854.448342
23055,-41447,-24989,-18103.215397,-10861.534284
23056,-41435,-24984,-18110.086338,-81.435797
23057,-41433,-24983,-18114.976903,-10874.212921
23058,-41440,-24985,-18117.014911,-10878.442787
23059,-41437,-24986,-18115.419370,-93.450386
23060,-41440,-24988,-18109.598903,-10879.387298
23061,-41451,-24998,-18099.239029,-10875.149387
23062,-41453,-25001,-18084.365357,-80.589030
23063,-41456,-25005,-18065.370030,-10856.547820
23064,-41469,-25016,-18042.999986,-10842.708196
23065,-41475,-25017,-18018.308097,-39.725639
23066,-41477,-25022,-17992.567861,-10809.176210
23067,-41486,-25030,-17967.163264,-10791.329971
23068,-41484,-25031,-17943.468667,12.781162
23069,-41478,-25037,-17922.727256,-10758.544072
23070,-41477,-25038,-17905.944893,-10745.438033
23071,-41469,-25032,-17893.811681,51.451823
23072,-41457,-25031,-17886.655544,-10728.988631
23073,-41452,-25031,-17884.432787,-10726.166030
23074,-41443,-25023,-17886.756461,60.058856
23075,-41432,-25020,-17892.953535,-10730.659625
23076,-41426,-25017,-17902.143992,-10737.050369
23077,-41424,-25008,-17913.332166,41.556059
23078,-41419,-25009,-17925.499170,-10754.839198
23079,-41416,-25010,-17937.685595,-10764.814701
23080,-41419,-24999,-17949.057773,12.263073
23081,-41416,-25004,-17958.958244,-10783.798731
23082,-41416,-25006,-17966.928778,-10791.889361
23083,-41420,-25002,-17972.715911,-11.756102
23084,-41420,-25009,-17976.260948,-10803.996215
23085,-41419,-25013,-17977.676104,-10807.889124
23086,-41422,-25010,-17977.214976,-23.530008
23087,-41423,-25019,-17975.239758,-10811.805661
23088,-41420,-25024,-17972.188861,-10812.222188
23089,-41427,-25022,-17968.544335,-25.040669
23090,-41427,-25029,-17964.804296,-10811.260704
23091,-41426,-25034,-17961.454338,-10810.449564
23092,-41435,-25034,-17958.940661,-22.905925
23093,-41437,-25040,-17957.646064,-10809.614419
23094,-41436,-25043,-17957.864986,-10810.096259
23095,-41444,-25044,-17959.781842,-24.544784
23096,-41444,-25048,-17963.458367,-10813.810029
23097,-41439,-25054,-17968.824268,-10817.232533
23098,-41444,-25055,-17975.681976,-34.787601
23099,-41442,-25060,-17983.724898,-10827.084794
23100,-41437,-25059,-17992.565249,-10833.225685
23101,-41428,-25051,-18001.776089,-52.975496
23102,-41410,-25040,-18010.938752,-10846.790941
23103,-41385,-25027,-18019.690450,-10853.700565
23104,-41357,-25008,-18027.767232,-73.490786
23105,-41322,-24986,-18035.035506,-10866.733779
23106,-41289,-24963,-18041.502174,-10872.653732
23107,-41264,-24945,-18047.306449,-91.281892
23108,-41240,-24927,-18052.688026,-10883.445351
23109,-41221,-24914,-18057.936479,-10888.586082
23110,-41213,-24909,-18063.327800,-106.872916
23111,-41207,-24908,-18069.058154,-10899.156185
23112,-41206,-24908,-18075.180746,-10904.768559
23113,-41213,-24914,-18081.561977,-123.639712
23114,-41212,-24917,-18087.861569,-10916.275613
23115,-41218,-24921,-18093.539409,-10921.603563
23116,-41228,-24928,-18097.897555,-139.146533
23117,-41230,-24933,-18100.148788,-10929.066914
23118,-41233,-24942,-18099.506000,-10930.073699
23119,-41244,-24949,-18095.281065,-141.647264
23120,-41253,-24957,-18086.983848,-10924.110488
23121,-41262,-24968,-18074.403605,-10916.538987
23122,-41269,-24977,-18057.665860,-118.960323
23123,-41272,-24980,-18037.253034,-10892.376235
23124,-41276,-24986,-18013.986671,-10876.600812
23125,-41275,-24993,-17988.971686,-72.380151
23126,-41268,-24987,-17963.507644,-10841.333312
23127,-41265,-24987,-17938.974790,-10823.719589
23128,-41259,-24987,-17916.712759,-20.506817
23129,-41250,-24983,-17897.898655,-10793.285511
23130,-41245,-24979,-17883.442077,-10782.038457
23131,-41239,-24979,-17873.906780,12.761977
23132,-41236,-24977,-17869.466446,-10769.812159
23133,-41240,-24981,-17869.900140,-10768.983130
23134,-41239,-24988,-17874.625251,15.559237
23135,-41245,-24989,-17882.762618,-10776.383349
23136,-41247,-24993,-17893.228826,-10783.420304
23137,-41249,-24998,-17904.842176,-4.794436
23138,-41255,-24999,-17916.431633,-10800.451135
23139,-41265,-25009,-17926.941036,-10808.948087
23140,-41263,-25010,-17935.514268,-29.665841
23141,-41270,-25016,-17941.555366,-10822.845707
23142,-41280,-25027,-17944.761891,-10827.459349
23143,-41280,-25031,-17945.127630,-43.370534
23144,-41287,-25035,-17942.914734,-10831.325473
23145,-41295,-25045,-17938.604624,-10830.775544
23146,-41295,-25050,-17932.830477,-42.001348
23147,-41303,-25055,-17926.298515,-10826.074529
23148,-41309,-25066,-17919.710205,-10822.662895
23149,-41308,-25068,-17913.690517,-32.148313
23150,-41315,-25070,-17908.729538,-10815.592406
23151,-41325,-25075,-17905.144491,-10812.555994
23152,-41318,-25078,-17903.065571,-23.237541
23153,-41323,-25082,-17902.442592,-10808.466752
23154,-41330,-25085,-17903.074518,-10807.554270
23155,-41326,-25088,-17904.657756,-20.459663
23156,-41331,-25089,-17906.841918,-10807.812590
23157,-41334,-25092,-17909.290268,-10808.783768
23158,-41317,-25089,-17911.735897,-23.265908
23159,-41300,-25077,-17914.023034,-10811.898495
23160,-41275,-25061,-17916.128410,-10813.929970
23161,-41237,-25043,-17918.162777,-29.378257
23162,-41203,-25016,-17920.346279,-10819.028400
23163,-41175,-24993,-17922.961764,-10822.259591
23164,-41140,-24972,-17926.296222,-39.173524
23165,-41116,-24956,-17930.572687,-10830.560661
23166,-41102,-24942,-17935.882949,-10835.710250
23167,-41084,-24934,-17942.138988,-54.530732
23168,-41077,-24929,-17949.040704,-10847.528615
23169,-41082,-24929,-17956.071217,-10853.645273
23170,-41082,-24934,-17962.528538,-72.421216
23171,-41083,-24942,-17967.582392,-10864.025373
23172,-41090,-24944,-17970.353425,-10867.148121
23173,-41096,-24951,-17970.013245,-81.213708
23174,-41103,-24958,-17965.884147,-10866.448082
23175,-41110,-24964,-17957.528631,-10861.788161
23176,-41119,-24972,-17944.821481,-67.090564
23177,-41126,-24981,-17927.989972,-10843.168701
23178,-41137,-24988,-17907.614458,-10829.651506
23179,-41143,-24995,-17884.596596,-27.124166
23180,-41143,-25004,-17860.089192,-10797.088325
23181,-41145,-25008,-17835.397107,-10779.746320
23182,-41145,-25011,-17811.866364,23.922165
23183,-41142,-25012,-17790.765119,-10747.754574
23184,-41136,-25007,-17773.174973,-10734.903182
23185,-41134,-25002,-17759.902649,61.811664
23186,-41127,-25002,-17751.420294,-10718.758660
23187,-41121,-24997,-17747.838928,-10716.064441
23188,-41117,-24994,-17748.917470,69.991072
23189,-41114,-24994,-17754.101854,-10720.969362
23190,-41112,-24992,-17762.591147,-10727.686690
23191,-41111,-24995,-17773.420053,50.522823
23192,-41112,-24999,-17785.546836,-10746.299796
23193,-41117,-25001,-17797.943474,-10756.669207
23194,-41121,-25005,-17809.674814,20.127738
23195,-41127,-25011,-17819.960590,-10776.018646
23196,-41128,-25016,-17828.223995,-10783.923023
23197,-41131,-25017,-17834.114750,-3.282964
23198,-41137,-25024,-17837.513837,-10794.681303
23199,-41140,-25032,-17838.524454,-10797.425639
23200,-41146,-25038,-17837.442620,-11.684264
23201,-41149,-25042,-17834.717628,-10798.456386
23202,-41149,-25045,-17830.907411,-10797.386053
23203,-41152,-25050,-17826.624111,-8.881009
23204,-41159,-25053,-17822.479904,-10794.075951
23205,-41164,-25057,-17819.038779,-10792.645460
23206,-41168,-25064,-17816.768951,-4.928407
23207,-41172,-25064,-17816.004753,-10791.903378
23208,-41170,-25068,-17816.925838,-10793.018094
23209,-41174,-25076,-17819.545399,-8.335032
23210,-41179,-25075,-17823.718088,-10798.533776
23211,-41182,-25081,-17829.166556,-10802.766950
23212,-41186,-25084,-17835.519586,-20.836384
23213,-41191,-25087,-17842.362341,-10813.219757
23214,-41187,-25091,-17849.295013,-10818.950739
23215,-41183,-25089,-17855.985883,-37.806855
23216,-41172,-25081,-17862.216165,-10830.338153
23217,-41146,-25077,-17867.910558,-10835.735645
23218,-41117,-25058,-17873.143038,-53.995646
23219,-41080,-25032,-17878.118485,-10845.913423
23220,-41043,-25010,-17883.131881,-10850.909667
23221,-41013,-24980,-17888.506704,-69.151344
23222,-40985,-24958,-17894.521857,-10861.508177
23223,-40960,-24948,-17901.338578,-10867.353198
23224,-40946,-24931,-17908.936189,-86.675129
23225,-40936,-24923,-17917.068848,-10880.045161
23226,-40930,-24924,-17925.252879,-10886.450017
23227,-40930,-24921,-17932.787684,-105.452694
23228,-40929,-24924,-17938.811395,-10897.220867
23229,-40934,-24929,-17942.385320,-10900.424474
23230,-40943,-24933,-17942.600673,-114.454190
23231,-40947,-24938,-17938.692237,-10899.495376
23232,-40950,-24945,-17930.143454,-10894.448315
23233,-40962,-24951,-17916.772040,-99.141541
23234,-40968,-24961,-17898.782621,-10874.374926
23235,-40979,-24965,-17876.775719,-10859.783507
23236,-40987,-24973,-17851.716139,-55.975946
23237,-40987,-24983,-17824.858690,-10824.494485
23238,-40989,-24986,-17797.639453,-10805.596466
23239,-40994,-24987,-17771.548417,-0.322863
23240,-40987,-24987,-17747.997416,-10770.408760
23241,-40986,-24983,-17728.192106,-10756.041877
23242,-40983,-24979,-17713.033077,42.061467
23243,-40971,-24977,-17703.047882,-10737.288241
23244,-40964,-24972,-17698.359630,-10733.569720
23245,-40961,-24971,-17698.700463,53.300418
23246,-40951,-24970,-17703.460504,-10737.056006
23247,-40952,-24962,-17711.761561,-10743.369420
23248,-40955,-24964,-17722.555070,35.065374
23249,-40949,-24967,-17734.725255,-10761.680101
23250,-40958,-24967,-17747.183645,-10772.083789
23251,-40961,-24970,-17758.958120,4.610953
23252,-40959,-24973,-17769.257258,-10791.658453
23253,-40965,-24973,-17777.511520,-10799.658722
23254,-40964,-24976,-17783.393692,-19.037536
23255,-40966,-24983,-17786.814237,-10810.332161
23256,-40975,-24988,-17787.899358,-10812.811660
23257,-40980,-24995,-17786.957508,-26.614889
23258,-40982,-25002,-17784.434648,-10812.726991
23259,-40991,-25004,-17780.864436,-10810.795187
23260,-40994,-25010,-17776.820722,-21.248891
23261,-40999,-25016,-17772.868691,-10805.264230
23262,-41007,-25021,-17769.520674,-10802.573404
23263,-41011,-25028,-17767.199929,-13.584048
23264,-41015,-25031,-17766.210423,-10799.348911
23265,-41026,-25041,-17766.715999,-10799.384398
23266,-41024,-25049,-17768.735999,-13.809010
23267,-41029,-25050,-17772.147222,-10803.336035
23268,-41041,-25056,-17776.703586,-10807.122839
23269,-41042,-25063,-17782.070984,-24.943569
23270,-41045,-25059,-17787.868426,-10817.218322
23271,-41050,-25069,-17793.717563,-10822.895429
23272,-41041,-25069,-17799.295787,-41.651334
23273,-41033,-25057,-17804.379724,-10833.932773
23274,-41012,-25054,-17808.879835,-10838.838081
23275,-40978,-25036,-17812.854846,-56.299283
23276,-40948,-25006,-17816.501955,-10847.088732
23277,-40916,-24989,-17820.126687,-10850.651979
23278,-40882,-24967,-17824.090255,-67.235610
23279,-40857,-24938,-17828.739447,-10857.838922
23280,-40838,-24929,-17834.332784,-10862.001302
23281,-40818,-24915,-17840.970285,-79.900163
23282,-40813,-24903,-17848.535632,-10872.296357
23283,-40806,-24909,-17856.668042,-10878.340491
23284,-40801,-24908,-17864.763107,-97.714308
23285,-40811,-24906,-17872.008348,-10890.639497
23286,-40822,-24919,-17877.456518,-10895.760585
23287,-40817,-24918,-17880.122516,-112.365163
23288,-40828,-24921,-17879.094453,-10900.460744
23289,-40835,-24938,-17873.651008,-10898.708200
23290,-40839,-24943,-17863.362581,-106.663437
23291,-40850,-24947,-17848.165596,-10884.844022
23292,-40862,-24962,-17828.403319,-10872.621870
23293,-40867,-24963,-17804.819180,-70.393036
23294,-40878,-24970,-17778.506059,-10839.555534
23295,-40884,-24978,-17750.820208,-10820.305420
23296,-40881,-24981,-17723.261416,-13.712156
23297,-40880,-24980,-17697.337953,-10781.621235
23298,-40875,-24984,-17674.433560,-10764.397531
23299,-40871,-24980,-17655.684586,37.017067
23300,-40866,-24978,-17641.887413,-10738.812718
23301,-40861,-24980,-17633.442049,-10731.606087
23302,-40854,-24974,-17630.334851,58.506451
23303,-40848,-24972,-17632.162160,-10729.019389
23304,-40847,-24971,-17638.191948,-10733.021697
23305,-40842,-24968,-17647.448157,47.157251
23306,-40846,-24975,-17658.811529,-10748.400278
23307,-40850,-24974,-17671.128135,-10758.114082
23308,-40849,-24971,-17683.306681,18.863095
23309,-40850,-24977,-17694.401582,-10777.421560
23310,-40854,-24975,-17703.676757,-10785.622604
23311,-40853,-24973,-17710.641351,-5.285352
23312,-40856,-24984,-17715.061200,-10796.861605
23313,-40863,-24984,-17716.949246,-10799.556465
23314,-40866,-24990,-17716.535411,-13.465266
23315,-40867,-25000,-17714.222292,-10799.545557
23316,-40874,-24997,-17710.534020,-10797.429121
23317,-40875,-24996,-17706.060015,-7.534665
23318,-40877,-25006,-17701.398274,-10791.027639
23319,-40879,-25001,-17697.106094,-10787.629652
23320,-40880,-25001,-17693.655381,2.263563
23321,-40881,-25011,-17691.398469,-10782.389905
23322,-40880,-25000,-17690.548490,-10781.106123
23323,-40881,-25000,-17691.171035,5.985724
23324,-40883,-25011,-17693.190556,-10781.856703
23325,-40887,-25007,-17696.411735,-10783.843809
23326,-40889,-25010,-17700.553000,0.176232
23327,-40884,-25019,-17705.289837,-10790.309429
23328,-40882,-25013,-17710.301469,-10794.357311
23329,-40873,-25006,-17715.319730,-11.754146
23330,-40854,-25005,-17720.168683,-10803.049255
23331,-40833,-24983,-17724.792079,-10807.428334
23332,-40803,-24961,-17729.264030,-24.879667
23333,-40766,-24942,-17733.776505,-10816.196092
23334,-40736,-24915,-17738.605823,-10820.806688
23335,-40704,-24890,-17744.062451,-38.900045
23336,-40671,-24873,-17750.426755,-10831.382978
23337,-40654,-24854,-17757.878406,-10837.678792
23338,-40639,-24840,-17766.435933,-57.831802
23339,-40631,-24838,-17775.908221,-10852.467692
23340,-40631,-24835,-17785.871815,-10860.614809
23341,-40629,-24831,-17795.679714,-81.853173
23342,-40626,-24835,-17804.501611,-10876.333844
23343,-40631,-24836,-17811.394216,-10882.668527
23344,-40634,-24839,-17815.396753,-100.146684
23345,-40632,-24841,-17815.638018,-10888.813291
23346,-40638,-24841,-17811.443174,-10887.395719
23347,-40645,-24840,-17802.427861,-95.532958
23348,-40647,-24847,-17788.566625,-10873.834091
23349,-40654,-24856,-17770.223188,-10861.759821
23350,-40653,-24856,-17748.142299,-59.780680
23351,-40650,-24854,-17723.399207,-10829.349090
23352,-40650,-24859,-17697.312338,-10810.688098
23353,-40645,-24855,-17671.331440,-4.866854
23354,-40634,-24847,-17646.910651,-10773.705490
23355,-40628,-24844,-17625.380607,-10757.522555
23356,-40619,-24833,-17607.836685,42.799014
23357,-40608,-24828,-17595.052484,-10734.114124
23358,-40598,-24826,-17587.426895,-10727.924277
23359,-40588,-24820,-17584.969082,61.280292
23360,-40579,-24813,-17587.321377,-10727.023886
23361,-40575,-24815,-17593.812308,-10731.676789
23362,-40570,-24809,-17603.536068,47.951263
23363,-40568,-24808,-17615.445160,-10748.106207
23364,-40573,-24814,-17628.446652,-10758.331777
23365,-40575,-24814,-17641.493685,18.051786
23366,-40577,-24816,-17653.663466,-10778.976131
23367,-40582,-24822,-17664.214900,-10788.124972
23368,-40580,-24819,-17672.626963,-8.976531
23369,-40582,-24821,-17678.613981,-10801.993667
23370,-40584,-24827,-17682.120675,-10806.365276
23371,-40583,-24834,-17683.301507,-22.145358
23372,-40589,-24835,-17682.484880,-10810.228926
23373,-40591,-24842,-17680.129928,-10810.169637
23374,-40591,-24841,-17676.777364,-22.303249
23375,-40594,-24842,-17672.998456,-10807.714013
23376,-40598,-24845,-17669.345023,-10806.052371
23377,-40598,-24843,-17666.305354,-17.660221
23378,-40599,-24847,-17664.266200,-10803.544727
23379,-40600,-24855,-17663.485244,-10803.205878
23380,-40602,-24857,-17664.076877,-16.776326
23381,-40604,-24855,-17666.011058,-10805.014589
23382,-40602,-24855,-17669.127657,-10807.152889
23383,-40590,-24850,-17673.165846,-23.063149
23384,-40576,-24837,-17677.803082,-10813.277010
23385,-40546,-24821,-17682.702307,-10816.859114
23386,-40514,-24797,-17687.560575,-33.592904
23387,-40483,-24772,-17692.151719,-10824.013234
23388,-40450,-24755,-17696.359087,-10827.278823
23389,-40418,-24733,-17700.190848,-43.346541
23390,-40398,-24712,-17703.772918,-10832.977680
23391,-40381,-24701,-17707.322558,-10835.574289
23392,-40368,-24689,-17711.103980,-51.310478
23393,-40366,-24683,-17715.367125,-10841.095309
23394,-40362,-24684,-17720.284990,-10844.373794
23395,-40362,-24686,-17725.893795,-61.234617
23396,-40369,-24688,-17732.046129,-10852.369640
23397,-40372,-24695,-17738.388593,-10856.890506
23398,-40373,-24699,-17744.368260,-74.474129
23399,-40377,-24700,-17749.266809,-10865.376411
23400,-40385,-24707,-17752.265408,-10868.311636
23401,-40397,-24716,-17752.532756,-82.663592
23402,-40406,-24725,-17749.321727,-10868.555985
23403,-40416,-24731,-17742.069167,-10864.773595
23404,-40423,-24735,-17730.482565,-70.988030
23405,-40428,-24744,-17714.599878,-10847.815460
23406,-40429,-24741,-17694.819325,-10834.699339
23407,-40423,-24741,-17671.888670,-32.070365
23408,-40418,-24739,-17646.854904,-10801.325445
23409,-40416,-24731,-17620.981944,-10782.622088
23410,-40410,-24730,-17595.642689,23.043437
23411,-40405,-24733,-17572.194888,-10746.075083
23412,-40402,-24725,-17551.859971,-10730.224796
23413,-40398,-24723,-17535.613393,69.782920
23414,-40393,-24725,-17524.099769,-10707.354751
23415,-40398,-24717,-17517.581539,-10701.228591
23416,-40395,-24722,-17515.927513,88.151150
23417,-40395,-24729,-17518.635445,-10699.654729
23418,-40403,-24724,-17524.893703,-10703.398912
23419,-40405,-24729,-17533.667530,77.639031
23420,-40405,-24733,-17543.801512,-10716.424368
23421,-40415,-24732,-17554.130229,-10724.005790
23422,-40415,-24735,-17563.583657,55.708230
23423,-40416,-24742,-17571.274532,-10737.307598
23424,-40427,-24736,-17576.565984,-10741.820717
23425,-40431,-24746,-17579.109609,42.474089
23426,-40433,-24756,-17578.853660,-10745.054953
23427,-40443,-24753,-17576.021987,-10743.812371
23428,-40449,-24755,-17571.067707,45.903620
23429,-40451,-24762,-17564.608290,-10737.050299
23430,-40457,-24758,-17557.348978,-10732.455463
23431,-40460,-24764,-17550.003487,59.173742
23432,-40461,-24770,-17543.220130,-10723.354570
23433,-40465,-24766,-17537.522016,-10719.713497
23434,-40465,-24772,-17533.264493,69.821672
23435,-40468,-24776,-17530.617048,-10715.610947
23436,-40472,-24775,-17529.568792,-10715.309294
23437,-40476,-24780,-17529.954150,70.822194
23438,-40482,-24786,-17531.497905,-10717.755778
23439,-40480,-24785,-17533.874151,-10720.104432
23440,-40476,-24786,-17536.761362,64.000316
23441,-40470,-24788,-17539.897666,-10725.968484
23442,-40456,-24775,-17543.121553,-10729.167222
23443,-40433,-24760,-17546.391228,54.450078
23444,-40401,-24741,-17549.781949,-10735.867495
23445,-40363,-24714,-17553.460380,-10739.500576
23446,-40329,-24685,-17557.635699,43.418914
23447,-40298,-24662,-17562.499993,-10747.951387
23448,-40274,-24644,-17568.163064,-10752.965787
23449,-40255,-24629,-17574.591965,28.397578
23450,-40241,-24617,-17581.567936,-10764.429378
23451,-40234,-24614,-17588.666804,-10770.434806
23452,-40239,-24607,-17595.269944,10.814498
23453,-40243,-24607,-17600.607959,-10780.851338
23454,-40241,-24608,-17603.832105,-10784.100363
23455,-40246,-24612,-17604.105234,1.685013
23456,-40251,-24616,-17600.704257,-10783.665081
23457,-40253,-24620,-17593.120276,-10779.027246
23458,-40264,-24624,-17581.138797,15.799146
23459,-40271,-24630,-17564.895919,-10759.954481
23460,-40278,-24639,-17544.895760,-10745.891374
23461,-40290,-24643,-17521.986729,57.406505
23462,-40294,-24648,-17497.300200,-10711.583673
23463,-40297,-24652,-17472.155530,-10693.107168
23464,-40301,-24654,-17447.942378,111.799296
23465,-40306,-24655,-17425.994751,-10658.601891
23466,-40304,-24656,-17407.472323,-10644.501863
23467,-40299,-24652,-17393.259383,153.380886
23468,-40290,-24647,-17383.893605,-10626.140790
23469,-40289,-24642,-17379.532580,-10622.534262
23470,-40286,-24640,-17379.959566,164.304701
23471,-40279,-24634,-17384.624749,-10625.975469
23472,-40283,-24635,-17392.714752,-10632.073895
23473,-40284,-24639,-17403.244126,146.743597
23474,-40280,-24636,-17415.153772,-10649.434456
23475,-40289,-24640,-17427.404801,-10659.082610
23476,-40295,-24643,-17439.063837,118.538998
23477,-40295,-24642,-17449.366809,-10676.672510
23478,-40309,-24648,-17457.758756,-10683.543014
23479,-40315,-24654,-17463.914618,98.205957
23480,-40313,-24655,-17467.733831,-10692.045256
23481,-40327,-24660,-17469.317994,-10693.643696
23482,-40332,-24670,-17468.940266,93.209589
23483,-40332,-24672,-17467.002233,-10692.510736
23484,-40346,-24675,-17463.988898,-10690.460976
23485,-40351,-24681,-17460.427452,98.954241
23486,-40348,-24682,-17456.844028,-10685.386098
23487,-40362,-24687,-17453.725502,-10683.134103
23488,-40367,-24696,-17451.490688,105.398024
23489,-40362,-24696,-17450.461689,-10680.744916
23490,-40375,-24698,-17450.843513,-10680.992320
23491,-40376,-24699,-17452.715478,104.605105
23492,-40374,-24701,-17456.027291,-10684.625697
23493,-40381,-24703,-17460.608169,-10687.834326
23494,-40381,-24705,-17466.189118,95.184211
23495,-40382,-24707,-17472.432303,-10696.034842
23496,-40393,-24712,-17478.971577,-10700.500589
23497,-40395,-24715,-17485.460187,82.045553
23498,-40396,-24715,-17491.613444,-10708.903501
23499,-40406,-24719,-17497.247068,-10712.495300
23500,-40409,-24718,-17502.305153,71.307290
23501,-40412,-24716,-17506.865488,-10718.281485
23502,-40419,-24723,-17511.127020,-10720.709104
23503,-40417,-24726,-17515.375534,63.783639
23504,-40412,-24728,-17519.928622,-10725.797364
23505,-40407,-24729,-17525.070452,-10728.998061
23506,-40385,-24713,-17530.984508,53.981915
23507,-40357,-24695,-17537.689016,-10737.657391
23508,-40325,-24675,-17544.992924,-10743.124007
23509,-40286,-24650,-17552.477160,37.835271
23510,-40257,-24628,-17559.505434,-10755.064741
23511,-40232,-24604,-17565.270881,-10760.520230
23512,-40209,-24581,-17568.871641,22.158066
23513,-40197,-24570,-17569.407579,-10767.022550
23514,-40185,-24562,-17566.091078,-10766.667092
23515,-40181,-24555,-17558.352465,23.769722
23516,-40190,-24558,-17545.929189,-10756.091518
23517,-40186,-24558,-17528.929705,-10745.461357
23518,-40192,-24552,-17507.853158,55.433571
23519,-40208,-24559,-17483.568867,-10714.647129
23520,-40206,-24570,-17457.256734,-10695.772897
23521,-40211,-24569,-17430.304611,111.067236
23522,-40224,-24580,-17404.185203,-10655.946191
23523,-40225,-24587,-17380.323135,-10637.210309
23524,-40235,-24588,-17359.961077,166.248324
23525,-40257,-24598,-17344.049982,-10607.130187
23526,-40256,-24602,-17333.172701,-10597.214474
23527,-40259,-24597,-17327.501450,195.710532
