seq,red_raw,ir_raw,red_fir,ir_fir
423,-465330,-465395,-31.498984,-31.832344
424,-465320,-465407,-201212.015625,-201243.828125
425,-465328,-465402,-201211.843750,-201244.156250
426,-465337,-465398,-30.858359,-32.894844
427,-465326,-465410,-201211.718750,-201244.750000
428,-465334,-465408,-201211.687500,-201245.000000
429,-465340,-465404,-31.092734,-33.379219
430,-465329,-465413,-201211.937500,-201245.015625
431,-465339,-465410,-201212.093750,-201244.890625
432,-465345,-465406,-31.420859,-32.847969
433,-465335,-465418,-201212.500000,-201244.156250
434,-465345,-465414,-201212.593750,-201243.625000
435,-465350,-465414,-31.858359,-31.394844
436,-465341,-465425,-201212.640625,-201242.609375
437,-465347,-465420,-201212.625000,-201242.203125
438,-465350,-465417,-31.811484,-30.176094
439,-465340,-465424,-201212.437500,-201241.687500
440,-465347,-465418,-201212.421875,-201241.734375
441,-465348,-465413,-31.686484,-30.504219
442,-465338,-465418,-201212.609375,-201242.750000
443,-465344,-465413,-201212.921875,-201243.546875
444,-465345,-465409,-32.405234,-32.769844
445,-465334,-465415,-201213.750000,-201245.546875
446,-465338,-465410,-201214.406250,-201246.687500
447,-465338,-465402,-34.248984,-36.019844
448,-465329,-465407,-201215.984375,-201248.593750
449,-465331,-465401,-201216.796875,-201249.421875
450,-465331,-465398,-36.936484,-38.222969
451,-465322,-465402,-201218.656250,-201250.343750
452,-465324,-465399,-201219.500000,-201250.468750
453,-465323,-465393,-39.467734,-38.894844
454,-465315,-465399,-201221.156250,-201250.640625
455,-465319,-465394,-201221.984375,-201250.734375
456,-465319,-465389,-41.936484,-39.332344
457,-465313,-465397,-201223.656250,-201251.500000
458,-465317,-465390,-201224.781250,-201252.531250
459,-465319,-465386,-45.092734,-42.035469
460,-465313,-465391,-201227.234375,-201255.296875
461,-465317,-465390,-201228.546875,-201257.140625
462,-465318,-465385,-49.280234,-47.488594
463,-465311,-465389,-201231.500000,-201261.156250
464,-465313,-465386,-201232.859375,-201263.093750
465,-465312,-465380,-53.155234,-52.972969
466,-465306,-465385,-201234.859375,-201265.703125
467,-465310,-465384,-201235.375000,-201266.468750
468,-465309,-465376,-54.561484,-54.926094
469,-465304,-465379,-201235.015625,-201266.031250
470,-465306,-465378,-201234.281250,-201265.000000
471,-465302,-465368,-52.295859,-51.738594
472,-465299,-465375,-201231.515625,-201261.406250
473,-465302,-465375,-201229.796875,-201259.375000
474,-465298,-465365,-47.405234,-45.597969
475,-465294,-465371,-201226.296875,-201255.046875
476,-465296,-465370,-201224.593750,-201253.234375
477,-465293,-465360,-42.452109,-40.097969
478,-465288,-465365,-201222.062500,-201250.515625
479,-465288,-465361,-201221.265625,-201249.718750
480,-465282,-465350,-39.764609,-37.597969
481,-465276,-465351,-201220.484375,-201249.140625
482,-465271,-465346,-201220.546875,-201249.171875
483,-465262,-465331,-40.014609,-37.847969
484,-465254,-465328,-201221.156250,-201250.015625
485,-465252,-465325,-201221.765625,-201250.656250
486,-465245,-465312,-41.592734,-39.754219
487,-465243,-465314,-201223.218750,-201252.281250
488,-465241,-465313,-201224.093750,-201253.296875
489,-465233,-465302,-44.139609,-42.894844
490,-465227,-465302,-201225.890625,-201255.937500
491,-465223,-465303,-201227.062500,-201257.531250
492,-465217,-465289,-47.498984,-47.582344
493,-465216,-465291,-201229.781250,-201261.312500
494,-465214,-465292,-201231.343750,-201263.265625
495,-465209,-465281,-52.170859,-53.785469
496,-465212,-465284,-201234.796875,-201267.531250
497,-465209,-465283,-201236.609375,-201269.625000
498,-465204,-465270,-57.733359,-59.910469
499,-465207,-465273,-201240.500000,-201273.671875
500,-465203,-465273,-201242.328125,-201275.359375
501,-465196,-465258,-63.483359,-65.379219
502,-465189,-465255,-201246.125000,-201278.671875
503,-465177,-465248,-201247.921875,-201280.140625
504,-465157,-465226,-68.811484,-70.004219
505,-465140,-465211,-201251.281250,-201283.187500
506,-465113,-465194,-201252.906250,-201284.687500
507,-465078,-465153,-73.670859,-74.551094
508,-465051,-465126,-201255.937500,-201287.890625
509,-465014,-465096,-201257.406250,-201289.500000
510,-464971,-465046,-77.795859,-79.144844
511,-464938,-465012,-201259.750000,-201291.984375
512,-464893,-464978,-201260.718750,-201292.921875
513,-464851,-464926,-80.655234,-81.910469
514,-464820,-464893,-201261.921875,-201293.921875
515,-464778,-464862,-201262.031250,-201293.703125
516,-464738,-464814,-81.077109,-81.676094
517,-464712,-464785,-201261.437500,-201292.390625
518,-464679,-464766,-201260.515625,-201291.187500
519,-464655,-464732,-78.452109,-78.129219
520,-464645,-464717,-201257.796875,-201288.218750
521,-464627,-464708,-201256.140625,-201286.578125
522,-464611,-464685,-73.561484,-73.332344
523,-464613,-464681,-201252.640625,-201283.531250
524,-464605,-464683,-201250.937500,-201282.359375
525,-464594,-464665,-68.608359,-69.597969
526,-464597,-464665,-201248.109375,-201280.593750
527,-464593,-464672,-201247.187500,-201280.140625
528,-464592,-464660,-65.686484,-68.457344
529,-464603,-464667,-201246.312500,-201280.281250
530,-464603,-464681,-201246.406250,-201280.546875
531,-464605,-464673,-65.952109,-69.488594
532,-464620,-464682,-201247.500000,-201281.687500
533,-464619,-464697,-201248.328125,-201282.390625
534,-464624,-464693,-68.561484,-71.238594
535,-464642,-464705,-201250.406250,-201283.500000
536,-464645,-464726,-201251.515625,-201283.984375
537,-464652,-464720,-71.592734,-72.738594
538,-464672,-464733,-201253.390625,-201284.906250
539,-464677,-464753,-201254.406250,-201285.328125
540,-464684,-464748,-74.420859,-74.051094
541,-464699,-464763,-201256.125000,-201286.296875
542,-464703,-464781,-201257.062500,-201287.281250
543,-464707,-464772,-77.280234,-76.660469
544,-464723,-464784,-201259.218750,-201289.625000
545,-464726,-464801,-201260.359375,-201290.937500
546,-464731,-464792,-80.733359,-80.707344
547,-464745,-464804,-201262.812500,-201293.968750
548,-464746,-464823,-201264.109375,-201295.515625
549,-464748,-464814,-84.436484,-85.160469
550,-464765,-464829,-201266.265625,-201297.718750
551,-464766,-464849,-201266.843750,-201298.343750
552,-464770,-464839,-86.327109,-86.926094
553,-464786,-464849,-201267.343750,-201298.312500
554,-464784,-464866,-201266.984375,-201297.796875
555,-464782,-464852,-85.373984,-84.847969
556,-464796,-464862,-201265.234375,-201295.156250
557,-464796,-464876,-201263.718750,-201293.593750
558,-464795,-464860,-81.202109,-80.066719
559,-464807,-464870,-201260.250000,-201290.093750
560,-464804,-464885,-201258.078125,-201288.328125
561,-464802,-464868,-75.342734,-75.285469
562,-464813,-464876,-201254.250000,-201285.671875
563,-464807,-464891,-201252.578125,-201284.593750
564,-464807,-464877,-70.577109,-72.347969
565,-464819,-464884,-201250.781250,-201283.718750
566,-464816,-464898,-201250.890625,-201284.046875
567,-464817,-464885,-70.873984,-72.972969
568,-464831,-464892,-201253.265625,-201286.031250
569,-464826,-464904,-201255.734375,-201287.703125
570,-464824,-464890,-78.014609,-78.160469
571,-464837,-464898,-201262.250000,-201292.250000
572,-464832,-464912,-201265.734375,-201294.859375
573,-464827,-464895,-88.077109,-85.301094
574,-464837,-464898,-201271.156250,-201298.484375
575,-464830,-464908,-201271.703125,-201298.750000
576,-464824,-464890,-89.342734,-85.457344
577,-464829,-464896,-201265.765625,-201293.046875
578,-464819,-464901,-201257.984375,-201285.984375
579,-464814,-464880,-65.342734,-63.551094
580,-464823,-464882,-201230.156250,-201260.593750
581,-464816,-464892,-201209.921875,-201241.703125
582,-464811,-464872,-4.373984,-6.832344
583,-464817,-464874,-201156.703125,-201191.453125
584,-464808,-464883,-201124.921875,-201160.781250
585,-464800,-464865,90.407266,84.464531
586,-464805,-464868,-201054.218750,-201091.796875
587,-464794,-464874,-201017.421875,-201055.515625
588,-464782,-464849,199.954141,192.636406
589,-464781,-464846,-200945.750000,-200983.828125
590,-464770,-464849,-200912.609375,-200950.468750
591,-464764,-464829,298.422891,291.714531
592,-464774,-464835,-200855.703125,-200892.718750
593,-464776,-464851,-200832.781250,-200869.203125
594,-464780,-464842,367.016641,362.027031
595,-464796,-464858,-200798.734375,-200833.843750
596,-464806,-464876,-200787.328125,-200821.718750
597,-464812,-464870,401.797891,398.730156
598,-464832,-464891,-200774.015625,-200807.140625
599,-464840,-464913,-200771.515625,-200803.890625
600,-464848,-464909,409.688516,408.933281
601,-464869,-464929,-200772.546875,-200803.625000
602,-464878,-464955,-200775.593750,-200806.203125
603,-464888,-464954,400.797891,401.636406
604,-464910,-464973,-200785.750000,-200815.375000
605,-464923,-464998,-200792.312500,-200821.859375
606,-464934,-464998,380.751016,382.136406
607,-464959,-465022,-200808.718750,-200838.125000
608,-464973,-465050,-200818.187500,-200847.609375
609,-464986,-465051,352.313516,353.839531
610,-465012,-465076,-200839.187500,-200868.625000
611,-465025,-465101,-200850.421875,-200879.640625
612,-465038,-465101,319.016641,320.839531
613,-465059,-465124,-200873.234375,-200901.906250
614,-465071,-465148,-200884.484375,-200912.718750
615,-465079,-465146,285.501016,288.417656
616,-465098,-465166,-200905.734375,-200933.140625
617,-465109,-465186,-200915.546875,-200942.765625
618,-465115,-465182,255.782266,259.855156
619,-465136,-465201,-200933.906250,-200960.468750
620,-465148,-465220,-200942.203125,-200969.125000
621,-465155,-465219,230.516641,234.355156
622,-465170,-465237,-200958.062500,-200985.421875
623,-465178,-465253,-200965.406250,-200993.421875
624,-465180,-465248,208.313516,210.417656
625,-465195,-465265,-200979.390625,-201008.671875
626,-465203,-465281,-200985.640625,-201015.828125
627,-465206,-465275,189.313516,189.308281
628,-465218,-465290,-200996.828125,-201028.109375
629,-465226,-465303,-201001.609375,-201033.203125
630,-465229,-465299,175.235391,174.042656
631,-465242,-465313,-201008.984375,-201041.140625
632,-465251,-465324,-201011.765625,-201044.046875
633,-465252,-465319,166.735391,165.511406
634,-465264,-465334,-201016.062500,-201047.890625
635,-465269,-465343,-201017.765625,-201049.296875
636,-465265,-465336,161.422891,161.089531
637,-465273,-465346,-201020.859375,-201051.890625
638,-465276,-465352,-201022.468750,-201053.156250
639,-465271,-465343,156.938516,157.073906
640,-465280,-465352,-201025.500000,-201056.234375
641,-465284,-465358,-201026.828125,-201057.640625
642,-465277,-465349,152.782266,152.948906
643,-465280,-465356,-201028.671875,-201059.578125
644,-465279,-465356,-201028.984375,-201060.093750
645,-465267,-465341,151.907266,151.667656
646,-465262,-465342,-201028.140625,-201059.296875
647,-465253,-465334,-201027.015625,-201057.937500
648,-465229,-465310,155.501016,155.667656
649,-465219,-465299,-201023.171875,-201053.500000
650,-465210,-465287,-201020.640625,-201050.562500
651,-465196,-465270,163.235391,164.511406
652,-465206,-465282,-201014.218750,-201043.218750
653,-465222,-465294,-201010.421875,-201039.031250
654,-465234,-465302,174.735391,177.198906
655,-465267,-465333,-201001.187500,-201029.453125
656,-465303,-465364,-200995.578125,-201023.687500
657,-465324,-465388,191.579141,194.073906
658,-465361,-465426,-200982.250000,-201010.687500
659,-465394,-465459,-200974.468750,-201003.171875
660,-465406,-465474,214.501016,216.355156
661,-465432,-465500,-200957.687500,-200987.140625
662,-465462,-465527,-200949.406250,-200978.921875
663,-465483,-465550,239.376016,240.652031
664,-465523,-465588,-200934.343750,-200963.984375
665,-465558,-465620,-200928.671875,-200957.890625
666,-465574,-465640,256.266641,258.323906
667,-465600,-465667,-200922.312500,-200950.546875
668,-465624,-465690,-200922.078125,-200949.609375
669,-465628,-465699,256.860391,260.886406
670,-465646,-465718,-200927.906250,-200954.109375
671,-465660,-465726,-200933.500000,-200959.234375
672,-465658,-465729,240.079141,245.605156
673,-465666,-465738,-200949.312500,-200974.484375
674,-465675,-465742,-200958.687500,-200983.828125
675,-465666,-465736,211.844766,217.402031
676,-465670,-465739,-200979.500000,-201005.390625
677,-465673,-465735,-200990.484375,-201016.906250
678,-465661,-465729,179.001016,182.839531
679,-465661,-465730,-201013.390625,-201041.140625
680,-465665,-465729,-201025.093750,-201053.343750
681,-465647,-465721,143.751016,145.714531
682,-465649,-465723,-201049.281250,-201078.640625
683,-465654,-465720,-201061.718750,-201091.281250
684,-465643,-465716,106.751016,107.714531
685,-465647,-465717,-201086.515625,-201116.281250
686,-465651,-465716,-201098.625000,-201128.406250
687,-465639,-465714,70.329141,71.511406
688,-465643,-465717,-201121.843750,-201151.296875
689,-465649,-465718,-201132.484375,-201161.890625
690,-465639,-465719,38.391641,39.995781
691,-465644,-465723,-201151.687500,-201180.765625
692,-465653,-465721,-201160.359375,-201189.437500
693,-465641,-465718,12.532266,14.339531
694,-465646,-465720,-201175.593750,-201204.937500
695,-465656,-465720,-201182.359375,-201211.859375
696,-465644,-465719,-7.889609,-6.910469
697,-465650,-465719,-201194.734375,-201224.937500
698,-465654,-465715,-201200.218750,-201230.875000
699,-465638,-465711,-24.483359,-24.660469
700,-465639,-465710,-201209.671875,-201241.234375
701,-465645,-465705,-201213.562500,-201245.421875
702,-465625,-465704,-35.967734,-37.191719
703,-465629,-465703,-201219.468750,-201251.953125
704,-465638,-465698,-201221.718750,-201254.171875
705,-465621,-465696,-42.530234,-44.160469
706,-465625,-465697,-201224.953125,-201257.250000
707,-465632,-465690,-201226.468750,-201258.578125
708,-465614,-465688,-47.202109,-48.316719
709,-465617,-465686,-201229.781250,-201261.328125
710,-465625,-465679,-201231.562500,-201262.906250
711,-465609,-465681,-52.280234,-52.738594
712,-465612,-465684,-201234.312500,-201265.687500
713,-465622,-465683,-201234.703125,-201266.218750
714,-465601,-465681,-52.623984,-54.191719
715,-465607,-465683,-201230.640625,-201263.718750
716,-465620,-465682,-201225.515625,-201259.671875
717,-465606,-465689,-37.077109,-41.613594
718,-465612,-465690,-201207.828125,-201244.328125
719,-465625,-465687,-201195.468750,-201232.859375
720,-465610,-465691,-0.436484,-7.785469
721,-465618,-465690,-201166.000000,-201204.859375
722,-465630,-465690,-201150.687500,-201189.671875
723,-465615,-465696,44.501016,36.714531
724,-465621,-465697,-201124.093750,-201161.937500
725,-465631,-465693,-201115.062500,-201151.750000
726,-465615,-465699,70.719766,66.402031
727,-465622,-465698,-201109.937500,-201143.437500
728,-465635,-465694,-201115.078125,-201146.687500
729,-465617,-465700,55.672891,56.667656
730,-465621,-465697,-201140.390625,-201168.406250
731,-465632,-465692,-201159.781250,-201186.562500
732,-465612,-465697,-2.248984,3.339531
733,-465616,-465694,-201208.859375,-201233.375000
734,-465626,-465685,-201236.453125,-201260.593750
735,-465605,-465689,-84.030234,-77.019844
736,-465607,-465681,-201292.937500,-201316.968750
737,-465615,-465677,-201320.125000,-201344.531250
738,-465599,-465684,-164.952109,-159.285469
739,-465603,-465675,-201369.531250,-201395.406250
740,-465612,-465669,-201391.093750,-201417.750000
741,-465591,-465674,-229.248984,-225.894844
742,-465593,-465667,-201426.640625,-201454.984375
743,-465602,-465662,-201440.984375,-201469.625000
744,-465584,-465669,-271.905234,-270.144844
745,-465591,-465664,-201462.062500,-201491.328125
746,-465600,-465659,-201468.968750,-201498.468750
747,-465584,-465668,-292.873984,-291.222969
748,-465588,-465664,-201476.218750,-201505.109375
749,-465596,-465661,-201476.500000,-201505.250000
750,-465578,-465668,-294.233359,-291.676094
751,-465581,-465658,-201471.750000,-201499.781250
752,-465593,-465654,-201467.125000,-201494.968750
753,-465574,-465660,-280.545859,-277.597969
754,-465579,-465655,-201455.015625,-201482.953125
755,-465589,-465649,-201448.359375,-201476.578125
756,-465568,-465652,-260.936484,-258.754219
757,-465574,-465644,-201435.468750,-201464.890625
758,-465581,-465637,-201429.843750,-201460.000000
759,-465563,-465644,-244.311484,-244.394844
760,-465566,-465636,-201421.343750,-201453.015625
761,-465571,-465631,-201418.281250,-201450.843750
762,-465554,-465635,-235.498984,-237.629219
763,-465558,-465628,-201414.968750,-201448.265625
764,-465566,-465619,-201414.031250,-201447.656250
765,-465548,-465630,-232.530234,-235.301094
766,-465553,-465621,-201412.828125,-201446.171875
767,-465560,-465617,-201412.281250,-201445.203125
768,-465540,-465622,-230.498984,-232.238594
769,-465547,-465615,-201410.093750,-201442.125000
770,-465555,-465608,-201408.609375,-201439.968750
771,-465537,-465617,-225.639609,-225.644844
772,-465544,-465610,-201404.015625,-201434.375000
773,-465551,-465605,-201401.406250,-201431.203125
774,-465533,-465613,-217.420859,-216.113594
775,-465539,-465606,-201394.984375,-201424.187500
776,-465545,-465598,-201391.578125,-201420.515625
777,-465530,-465608,-207.373984,-205.004219
778,-465538,-465604,-201384.718750,-201412.875000
779,-465548,-465601,-201381.234375,-201409.250000
780,-465532,-465611,-197.077109,-193.972969
781,-465538,-465608,-201374.812500,-201402.234375
782,-465543,-465602,-201371.718750,-201399.093750
783,-465529,-465613,-188.186484,-184.722969
784,-465539,-465607,-201366.437500,-201393.875000
785,-465546,-465603,-201364.156250,-201391.968750
786,-465530,-465612,-181.467734,-178.926094
787,-465538,-465607,-201360.984375,-201389.750000
788,-465545,-465603,-201359.781250,-201389.453125
789,-465529,-465614,-178.420859,-177.816719
790,-465537,-465610,-201359.125000,-201390.140625
791,-465544,-465605,-201359.359375,-201391.078125
792,-465530,-465616,-179.311484,-180.722969
793,-465539,-465610,-201361.281250,-201393.921875
794,-465541,-465603,-201362.687500,-201395.687500
795,-465526,-465611,-183.592734,-185.707344
796,-465529,-465606,-201366.203125,-201399.140625
797,-465530,-465598,-201368.156250,-201400.765625
798,-465509,-465598,-189.202109,-190.738594
799,-465507,-465581,-201371.640625,-201403.906250
800,-465494,-465561,-201373.031250,-201405.109375
801,-465459,-465550,-193.389609,-194.566719
802,-465441,-465520,-201374.968750,-201406.984375
803,-465416,-465486,-201375.156250,-201407.515625
804,-465368,-465459,-194.373984,-196.097969
805,-465334,-465411,-201374.656250,-201407.531250
806,-465291,-465363,-201373.796875,-201407.031250
807,-465237,-465328,-191.733359,-194.207344
808,-465205,-465284,-201371.187500,-201404.500000
809,-465174,-465242,-201369.500000,-201402.828125
810,-465130,-465214,-186.873984,-189.066719
811,-465108,-465179,-201365.890625,-201398.390625
812,-465083,-465146,-201364.093750,-201396.031250
813,-465049,-465130,-181.389609,-182.176094
814,-465033,-465105,-201360.562500,-201391.875000
815,-465016,-465082,-201359.000000,-201389.984375
816,-464993,-465078,-176.889609,-176.863594
817,-464988,-465061,-201356.593750,-201387.734375
818,-464982,-465050,-201355.765625,-201387.078125
819,-464966,-465052,-174.358359,-175.301094
820,-464968,-465043,-201354.734375,-201387.328125
821,-464966,-465034,-201354.625000,-201387.843750
822,-464955,-465039,-173.889609,-176.863594
823,-464960,-465034,-201354.859375,-201389.265625
824,-464960,-465029,-201354.937500,-201389.843750
825,-464953,-465034,-174.311484,-178.535469
826,-464963,-465032,-201355.250000,-201390.171875
827,-464964,-465027,-201355.156250,-201389.734375
828,-464955,-465035,-174.155234,-177.285469
829,-464959,-465034,-201354.468750,-201387.875000
830,-464960,-465028,-201354.062500,-201386.484375
831,-464953,-465035,-172.608359,-173.176094
832,-464955,-465033,-201352.578125,-201383.140625
833,-464958,-465027,-201351.875000,-201381.656250
834,-464951,-465034,-170.264609,-168.566719
835,-464957,-465030,-201350.437500,-201379.062500
836,-464955,-465025,-201349.937500,-201378.203125
837,-464949,-465032,-168.748984,-165.957344
838,-464954,-465032,-201349.343750,-201377.390625
839,-464956,-465026,-201349.281250,-201377.390625
840,-464952,-465031,-168.577109,-165.660469
841,-464953,-465029,-201349.687500,-201377.687500
842,-464954,-465024,-201350.000000,-201377.921875
843,-464951,-465028,-169.670859,-166.426094
844,-464955,-465026,-201351.015625,-201378.281250
845,-464957,-465022,-201351.671875,-201378.703125
846,-464955,-465029,-171.702109,-167.426094
847,-464960,-465033,-201353.546875,-201379.703125
848,-464960,-465027,-201354.812500,-201380.609375
849,-464956,-465034,-175.795859,-170.363594
850,-464961,-465035,-201358.968750,-201384.031250
851,-464964,-465030,-201361.406250,-201386.578125
852,-464961,-465035,-183.498984,-178.051094
853,-464967,-465037,-201367.609375,-201393.250000
854,-464967,-465032,-201371.093750,-201397.218750
855,-464966,-465040,-194.014609,-189.660469
856,-464971,-465043,-201378.375000,-201405.500000
857,-464972,-465038,-201381.859375,-201409.609375
858,-464970,-465046,-204.342734,-201.894844
859,-464975,-465046,-201388.359375,-201417.312500
860,-464974,-465040,-201391.390625,-201420.796875
861,-464974,-465049,-213.623984,-212.551094
862,-464975,-465052,-201397.562500,-201427.703125
863,-464975,-465045,-201401.109375,-201431.281250
864,-464974,-465051,-224.217734,-223.816719
865,-464979,-465053,-201409.437500,-201440.046875
866,-464977,-465045,-201414.187500,-201445.156250
867,-464982,-465055,-238.342734,-238.910469
868,-464985,-465059,-201424.234375,-201455.906250
869,-464985,-465050,-201428.593750,-201460.796875
870,-464990,-465056,-250.889609,-252.988594
871,-464993,-465063,-201432.859375,-201466.781250
872,-464993,-465058,-201431.296875,-201466.265625
873,-464996,-465064,-245.545859,-250.551094
874,-464998,-465068,-201417.359375,-201454.343750
875,-464997,-465059,-201403.906250,-201441.625000
876,-465001,-465065,-204.998984,-212.535469
877,-465006,-465075,-201363.187500,-201401.875000
878,-465003,-465068,-201336.234375,-201375.031250
879,-465010,-465074,-124.905234,-132.660469
880,-465011,-465080,-201272.421875,-201310.484375
881,-465010,-465072,-201237.281250,-201274.640625
882,-465015,-465079,-20.952109,-26.347969
883,-465017,-465088,-201166.468750,-201201.734375
884,-465017,-465082,-201132.734375,-201167.015625
885,-465022,-465088,79.391641,76.823906
886,-465022,-465095,-201073.156250,-201105.796875
887,-465022,-465087,-201048.687500,-201080.812500
888,-465029,-465092,152.782266,151.745781
889,-465029,-465099,-201011.156250,-201043.125000
890,-465027,-465089,-200998.218750,-201030.421875
891,-465031,-465094,192.219766,190.558281
892,-465030,-465101,-200981.984375,-201014.937500
893,-465027,-465094,-200977.921875,-201011.312500
894,-465034,-465098,204.735391,202.027031
895,-465029,-465105,-200975.812500,-201009.328125
896,-465027,-465093,-200976.687500,-201010.140625
897,-465032,-465098,202.469766,199.995781
898,-465028,-465106,-200980.734375,-201013.593750
899,-465025,-465096,-200983.484375,-201015.906250
900,-465032,-465102,194.251016,193.152031
901,-465030,-465109,-200989.531250,-201021.328125
902,-465025,-465095,-200992.687500,-201024.250000
903,-465031,-465098,184.938516,184.120781
904,-465026,-465106,-200998.984375,-201030.843750
905,-465019,-465090,-201001.937500,-201034.156250
906,-465024,-465093,176.047891,174.042656
907,-465019,-465099,-201007.546875,-201041.000000
908,-465016,-465086,-201010.046875,-201044.109375
909,-465021,-465087,168.391641,164.542656
910,-465012,-465094,-201014.656250,-201049.640625
911,-465003,-465076,-201016.828125,-201051.937500
912,-465006,-465073,161.766641,157.573906
913,-464998,-465078,-201021.093750,-201055.937500
914,-464992,-465063,-201023.203125,-201057.531250
915,-464996,-465066,155.563516,152.667656
916,-464989,-465070,-201027.406250,-201060.437500
917,-464983,-465055,-201029.500000,-201062.015625
918,-464993,-465059,148.938516,147.902031
919,-464990,-465068,-201034.296875,-201065.593750
920,-464988,-465057,-201036.796875,-201067.750000
921,-464999,-465064,141.501016,141.714531
922,-464994,-465075,-201042.031250,-201072.375000
923,-464993,-465061,-201044.703125,-201074.906250
924,-465003,-465067,133.329141,134.198906
925,-465002,-465082,-201050.140625,-201080.125000
926,-465004,-465072,-201052.812500,-201082.671875
927,-465018,-465082,125.407266,126.417656
928,-465019,-465097,-201057.781250,-201087.593750
929,-465023,-465089,-201060.046875,-201089.968750
930,-465040,-465102,118.735391,119.573906
931,-465041,-465122,-201064.031250,-201094.234375
932,-465047,-465116,-201065.546875,-201096.140625
933,-465065,-465133,113.813516,113.761406
934,-465069,-465152,-201068.390625,-201099.562500
935,-465075,-465146,-201069.468750,-201101.265625
936,-465093,-465161,110.297891,108.964531
937,-465099,-465183,-201071.718750,-201104.203125
938,-465108,-465176,-201072.921875,-201105.531250
939,-465128,-465192,106.579141,104.792656
940,-465132,-465213,-201075.796875,-201108.250000
941,-465140,-465206,-201077.343750,-201109.453125
942,-465158,-465218,101.579141,100.933281
943,-465161,-465238,-201081.328125,-201112.031250
944,-465165,-465231,-201083.531250,-201113.218750
945,-465180,-465242,95.032266,97.198906
946,-465182,-465259,-201088.046875,-201115.781250
947,-465183,-465248,-201090.218750,-201117.156250
948,-465195,-465258,88.547891,93.120781
949,-465194,-465271,-201094.109375,-201119.812500
950,-465194,-465259,-201095.953125,-201121.328125
951,-465209,-465270,83.016641,88.667656
952,-465210,-465287,-201099.250000,-201124.687500
953,-465211,-465273,-201100.687500,-201126.437500
954,-465227,-465284,78.485391,83.417656
955,-465229,-465302,-201103.828125,-201130.218750
956,-465232,-465290,-201105.390625,-201132.062500
957,-465246,-465300,73.704141,77.808281
958,-465244,-465314,-201108.828125,-201135.734375
959,-465243,-465302,-201110.484375,-201137.359375
960,-465256,-465310,68.704141,72.683281
961,-465255,-465328,-201113.656250,-201140.359375
962,-465256,-465316,-201114.937500,-201141.375000
963,-465270,-465326,64.860391,69.339531
964,-465268,-465341,-201116.718750,-201142.953125
965,-465265,-465327,-201116.937500,-201143.390625
966,-465277,-465335,63.766641,68.120781
967,-465274,-465351,-201116.656250,-201143.765625
968,-465274,-465338,-201116.171875,-201143.593750
969,-465286,-465346,65.563516,68.136406
970,-465284,-465361,-201114.312500,-201143.296875
971,-465286,-465351,-201113.328125,-201143.031250
972,-465300,-465359,68.719766,68.870781
973,-465297,-465373,-201110.984375,-201142.468750
974,-465298,-465361,-201109.750000,-201142.140625
975,-465309,-465374,72.079141,70.058281
976,-465309,-465385,-201107.500000,-201140.656250
977,-465311,-465377,-201106.078125,-201139.515625
978,-465324,-465388,76.282266,73.745781
979,-465322,-465399,-201102.437500,-201135.875000
980,-465322,-465388,-201100.000000,-201133.343750
981,-465336,-465399,83.751016,81.433281
982,-465336,-465412,-201093.390625,-201126.593750
983,-465336,-465400,-201089.390625,-201122.468750
984,-465348,-465412,95.907266,93.777031
985,-465348,-465423,-201080.000000,-201113.156250
986,-465348,-465410,-201074.843750,-201108.281250
987,-465355,-465420,111.126016,108.402031
988,-465356,-465430,-201064.640625,-201098.515625
989,-465352,-465416,-201059.906250,-201093.843750
990,-465360,-465423,125.094766,121.964531
991,-465358,-465438,-201052.046875,-201086.031250
992,-465357,-465424,-201049.187500,-201082.875000
993,-465366,-465432,133.829141,131.261406
994,-465365,-465443,-201045.828125,-201078.500000
995,-465363,-465426,-201045.093750,-201077.265625
996,-465370,-465434,135.719766,134.902031
997,-465366,-465444,-201045.875000,-201076.796875
998,-465364,-465430,-201047.187500,-201077.593750
999,-465370,-465436,131.829141,132.589531
1000,-465365,-465445,-201051.234375,-201081.125000
1001,-465362,-465434,-201054.015625,-201083.921875
1002,-465368,-465440,123.563516,124.214531
1003,-465364,-465445,-201061.031250,-201091.734375
1004,-465356,-465428,-201065.500000,-201096.750000
1005,-465358,-465431,110.235391,109.167656
1006,-465353,-465435,-201076.359375,-201108.890625
1007,-465347,-465416,-201082.812500,-201115.937500
1008,-465350,-465419,90.844766,88.105156
1009,-465343,-465422,-201097.906250,-201131.687500
1010,-465336,-465403,-201106.250000,-201140.000000
1011,-465339,-465409,65.860391,63.136406
1012,-465335,-465415,-201123.875000,-201157.078125
1013,-465328,-465398,-201132.781250,-201165.406250
1014,-465332,-465402,39.454141,38.355156
1015,-465324,-465404,-201149.609375,-201180.781250
1016,-465315,-465384,-201157.000000,-201187.593750
1017,-465319,-465389,17.188516,17.870781
1018,-465314,-465393,-201169.625000,-201199.281250
1019,-465306,-465375,-201174.546875,-201203.953125
1020,-465307,-465377,1.922891,3.667656
1021,-465301,-465379,-201182.437500,-201211.562500
1022,-465293,-465360,-201185.609375,-201214.609375
